Time,Altitude,Vertical velocity,Vertical acceleration
0,0,0,19.096
0.01,9.5478e-4,0.19096,100.46
0.02,0.0078885,1.1959,102.87
0.03,0.024993,2.2251,104.53
0.04,0.052472,3.271,105.13
0.05,0.090441,4.3228,104.65
0.06,0.1389,5.3698,104.17
0.07,0.19781,6.412,103.69
0.08,0.26712,7.4494,103.2
0.09,0.34678,8.482,102.72
0.1,0.43673,9.5097,102.23
0.11,0.53694,10.532,101.75
0.11949,0.64153,11.499,101.3
0.12819,0.74536,12.381,100.9
0.13627,0.84866,13.196,100.52
0.14385,0.95154,13.958,100.16
0.15101,1.0541,14.676,99.818
0.16176,1.2176,15.748,99.179
0.17788,1.4843,17.346,98.218
0.20206,1.9325,19.721,99.143
0.23833,2.7132,23.334,101.13
0.28833,4.0063,28.388,99.769
0.33833,5.5506,33.386,100.32
0.38833,7.3455,38.413,98.137
0.43833,9.389,43.329,97.942
0.48833,11.678,48.234,98.341
0.53833,14.213,53.16,98.716
0.58833,16.994,58.103,98.919
0.63833,20.023,63.056,98.746
0.68833,23.3,67.999,98.531
0.73833,26.823,72.932,98.289
0.78833,30.593,77.851,97.873
0.83833,34.608,82.748,97.279
0.88833,38.867,87.614,96.63
0.93833,43.368,92.447,95.947
0.98833,48.111,97.245,95.24
1.0383,53.092,102.01,94.533
1.0883,58.31,106.73,93.946
1.1383,63.765,111.43,93.328
1.1883,69.453,116.1,92.769
1.2383,75.374,120.74,92.198
1.2883,81.526,125.35,91.339
1.3383,87.908,129.92,90.421
1.3883,94.517,134.44,89.508
1.4383,101.35,138.92,88.563
1.4883,108.41,143.35,87.571
1.5383,115.68,147.72,86.559
1.5883,123.18,152.05,85.518
1.6383,130.89,156.32,84.415
1.6883,138.81,160.53,83.235
1.7383,146.94,164.69,81.709
1.7883,155.28,168.76,79.714
1.8383,163.81,172.74,77.873
1.8883,172.55,176.63,77.054
1.9383,181.48,180.48,76.488
1.9883,190.6,184.29,73.528
2.0383,199.9,187.96,66.59
2.0883,209.38,191.29,57.244
2.1383,219.02,194.14,45.139
2.1883,228.78,196.39,35.625
2.2383,238.65,198.17,26.791
2.2883,248.59,199.5,20.336
2.3383,258.59,200.52,14.343
2.3883,268.63,201.23,8.5343
2.4383,278.71,201.66,2.9016
2.4883,288.79,201.8,-2.6607
2.5383,298.88,201.67,-8.1672
2.5883,308.95,201.27,-12.928
2.6383,319,200.62,-17.326
2.6883,329.01,199.76,-21.054
2.7383,338.97,198.71,-23.607
2.7883,348.88,197.54,-24.45
2.8383,358.72,196.32,-25.047
2.8883,368.51,195.08,-25.662
2.9383,378.23,193.8,-26.264
2.9883,387.89,192.5,-26.6
3.0383,397.48,191.17,-26.319
3.0883,407.01,189.87,-26.048
3.1383,416.47,188.57,-25.763
3.1883,425.86,187.29,-25.541
3.2383,435.2,186.02,-25.352
3.2883,444.46,184.75,-25.135
3.3383,453.67,183.5,-24.92
3.3883,462.81,182.26,-24.695
3.4383,471.9,181.03,-24.447
3.4883,480.92,179.82,-24.175
3.5383,489.88,178.61,-23.928
3.5883,498.78,177.42,-23.7
3.6383,507.62,176.24,-23.472
3.6883,516.4,175.08,-23.251
3.7383,525.13,173.92,-23.084
3.7883,533.8,172.77,-22.905
3.8383,542.41,171.63,-22.678
3.8883,550.96,170.5,-22.455
3.9383,559.46,169.38,-22.259
3.9883,567.9,168.27,-22.102
4.0383,576.28,167.17,-21.945
4.0883,584.62,166.08,-21.779
4.1383,592.89,164.99,-21.613
4.1883,601.12,163.92,-21.419
4.2383,609.28,162.85,-21.23
4.2883,617.4,161.8,-21.013
4.3383,625.46,160.75,-20.836
4.3883,633.48,159.71,-20.703
4.4383,641.44,158.68,-20.548
4.4883,649.34,157.66,-20.425
4.5383,657.2,156.64,-20.311
4.5883,665.01,155.63,-20.165
4.6383,672.76,154.62,-20.022
4.6883,680.47,153.62,-19.875
4.7383,688.13,152.63,-19.696
4.7883,695.73,151.65,-19.56
4.8383,703.29,150.68,-19.405
4.8883,710.8,149.71,-19.254
4.9383,718.26,148.75,-19.082
4.9883,725.68,147.8,-18.936
5.0383,733.04,146.86,-18.816
5.0883,740.36,145.92,-18.693
5.1383,747.64,144.99,-18.541
5.1883,754.86,144.07,-18.433
5.2383,762.04,143.15,-18.334
5.2883,769.18,142.23,-18.233
5.3383,776.27,141.33,-18.124
5.3883,783.31,140.42,-18.05
5.4383,790.31,139.52,-17.971
5.4883,797.26,138.62,-17.888
5.5383,804.17,137.73,-17.731
5.5883,811.04,136.85,-17.584
5.6383,817.86,135.97,-17.469
5.6883,824.63,135.1,-17.355
5.7383,831.37,134.24,-17.253
5.7883,838.06,133.38,-17.105
5.8383,844.71,132.53,-16.985
5.8883,851.31,131.68,-16.846
5.9383,857.87,130.84,-16.716
5.9883,864.39,130.01,-16.576
6.0383,870.87,129.18,-16.486
6.0883,877.31,128.36,-16.412
6.1383,883.71,127.54,-16.343
6.1883,890.07,126.73,-16.319
6.2383,896.38,125.91,-16.249
6.2883,902.66,125.1,-16.189
6.3383,908.89,124.29,-16.137
6.3883,915.09,123.49,-16.075
6.4383,921.24,122.69,-15.984
6.4883,927.36,121.89,-15.901
6.5383,933.43,121.1,-15.81
6.5883,939.47,120.31,-15.711
6.6383,945.46,119.52,-15.611
6.6883,951.42,118.75,-15.486
6.7383,957.34,117.98,-15.376
6.7883,963.22,117.21,-15.29
6.8383,969.06,116.45,-15.18
6.8883,974.86,115.69,-15.079
6.9383,980.63,114.94,-15.024
6.9883,986.36,114.19,-14.972
7.0383,992.05,113.44,-14.911
7.0883,997.7,112.7,-14.859
7.1383,1003.3,111.96,-14.823
7.1883,1008.9,111.22,-14.767
7.2383,1014.4,110.48,-14.689
7.2883,1019.9,109.75,-14.6
7.3383,1025.4,109.02,-14.515
7.3883,1030.8,108.29,-14.438
7.4383,1036.2,107.58,-14.347
7.4883,1041.6,106.86,-14.27
7.5383,1046.9,106.15,-14.208
7.5883,1052.2,105.44,-14.152
7.6383,1057.5,104.73,-14.111
7.6883,1062.7,104.03,-14.059
7.7383,1067.9,103.33,-14.004
7.7883,1073,102.63,-13.962
7.8383,1078.1,101.93,-13.914
7.8883,1083.2,101.24,-13.868
7.9383,1088.3,100.54,-13.813
7.9883,1093.3,99.855,-13.733
8.0383,1098.2,99.171,-13.644
8.0883,1103.2,98.49,-13.603
8.1383,1108.1,97.812,-13.507
8.1883,1113,97.138,-13.441
8.2383,1117.8,96.468,-13.383
8.2883,1122.6,95.8,-13.345
8.3383,1127.4,95.133,-13.295
8.3883,1132.1,94.469,-13.274
8.4383,1136.8,93.806,-13.242
8.4883,1141.5,93.146,-13.181
8.5383,1146.2,92.488,-13.13
8.5883,1150.8,91.833,-13.063
8.6383,1155.3,91.181,-13.033
8.6883,1159.9,90.53,-12.998
8.7383,1164.4,89.881,-12.95
8.7883,1168.9,89.235,-12.906
8.8383,1173.3,88.591,-12.871
8.8883,1177.7,87.948,-12.828
8.9383,1182.1,87.307,-12.806
8.9883,1186.5,86.668,-12.75
9.0383,1190.8,86.032,-12.71
9.0883,1195.1,85.398,-12.651
9.1383,1199.3,84.767,-12.589
9.1883,1203.5,84.139,-12.523
9.2383,1207.7,83.514,-12.462
9.2883,1211.9,82.892,-12.433
9.3383,1216,82.272,-12.369
9.3883,1220.1,81.655,-12.299
9.4383,1224.2,81.041,-12.259
9.4883,1228.2,80.429,-12.218
9.5383,1232.2,79.82,-12.176
9.5883,1236.2,79.211,-12.15
9.6383,1240.1,78.605,-12.125
9.6883,1244.1,77.999,-12.112
9.7383,1247.9,77.394,-12.073
9.7883,1251.8,76.791,-12.042
9.8383,1255.6,76.19,-12.012
9.8883,1259.4,75.59,-11.993
9.9383,1263.2,74.991,-11.966
9.9883,1266.9,74.393,-11.945
10.038,1270.6,73.796,-11.932
10.088,1274.3,73.201,-11.873
10.138,1277.9,72.608,-11.839
10.188,1281.6,72.016,-11.832
10.238,1285.1,71.426,-11.787
10.288,1288.7,70.838,-11.74
10.338,1292.2,70.252,-11.691
10.388,1295.7,69.668,-11.652
10.438,1299.2,69.086,-11.632
10.488,1302.6,68.506,-11.586
10.538,1306,67.928,-11.537
10.588,1309.4,67.352,-11.496
10.638,1312.8,66.778,-11.446
10.688,1316.1,66.207,-11.388
10.738,1319.4,65.639,-11.354
10.788,1322.7,65.071,-11.347
10.838,1325.9,64.504,-11.332
10.888,1329.1,63.938,-11.326
10.938,1332.3,63.372,-11.291
10.988,1335.5,62.809,-11.256
11.038,1338.6,62.247,-11.234
11.088,1341.7,61.685,-11.217
11.138,1344.8,61.125,-11.19
11.188,1347.8,60.567,-11.142
11.238,1350.8,60.01,-11.12
11.288,1353.8,59.455,-11.115
11.338,1356.8,58.899,-11.102
11.388,1359.7,58.344,-11.081
11.438,1362.6,57.791,-11.048
11.488,1365.5,57.239,-11.025
11.538,1368.3,56.688,-11.03
11.588,1371.1,56.137,-11.015
11.638,1373.9,55.587,-10.978
11.688,1376.7,55.039,-10.951
11.738,1379.4,54.492,-10.931
11.788,1382.1,53.946,-10.911
11.838,1384.8,53.4,-10.915
11.888,1387.5,52.855,-10.9
11.938,1390.1,52.31,-10.867
11.988,1392.7,51.768,-10.851
12.038,1395.3,51.226,-10.807
12.088,1397.8,50.686,-10.779
12.138,1400.4,50.148,-10.758
12.188,1402.8,49.61,-10.753
12.238,1405.3,49.073,-10.732
12.288,1407.8,48.537,-10.733
12.338,1410.2,48,-10.719
12.388,1412.6,47.465,-10.688
12.438,1414.9,46.931,-10.683
12.488,1417.3,46.398,-10.637
12.538,1419.6,45.866,-10.619
12.588,1421.8,45.336,-10.576
12.638,1424.1,44.809,-10.531
12.688,1426.3,44.283,-10.5
12.738,1428.5,43.759,-10.474
12.788,1430.7,43.235,-10.457
12.838,1432.8,42.713,-10.434
12.888,1435,42.192,-10.429
12.938,1437.1,41.67,-10.41
12.988,1439.1,41.15,-10.395
13.038,1441.2,40.631,-10.359
13.088,1443.2,40.114,-10.329
13.138,1445.2,39.598,-10.313
13.188,1447.2,39.083,-10.274
13.238,1449.1,38.57,-10.252
13.288,1451,38.058,-10.263
13.338,1452.9,37.544,-10.268
13.388,1454.8,37.031,-10.269
13.438,1456.6,36.517,-10.276
13.488,1458.4,36.004,-10.265
13.538,1460.2,35.491,-10.266
13.588,1462,34.977,-10.265
13.638,1463.7,34.465,-10.229
13.688,1465.4,33.954,-10.2
13.738,1467.1,33.444,-10.19
13.788,1468.8,32.935,-10.192
13.838,1470.4,32.426,-10.174
13.888,1472,31.917,-10.163
13.938,1473.6,31.409,-10.156
13.988,1475.1,30.902,-10.145
14.038,1476.7,30.395,-10.137
14.088,1478.2,29.888,-10.13
14.138,1479.7,29.382,-10.114
14.188,1481.1,28.877,-10.081
14.238,1482.6,28.373,-10.064
14.288,1484,27.871,-10.054
14.338,1485.3,27.369,-10.018
14.388,1486.7,26.868,-9.989
14.438,1488,26.369,-9.9836
14.488,1489.3,25.87,-9.966
14.538,1490.6,25.372,-9.9719
14.588,1491.9,24.873,-9.9834
14.638,1493.1,24.374,-9.9709
14.688,1494.3,23.876,-9.9582
14.738,1495.5,23.378,-9.9574
14.788,1496.6,22.881,-9.9449
14.838,1497.8,22.384,-9.9303
14.888,1498.9,21.887,-9.9304
14.938,1500,21.391,-9.9387
14.988,1501,20.894,-9.9305
15.038,1502.1,20.398,-9.909
15.088,1503.1,19.903,-9.8974
15.138,1504,19.408,-9.8873
15.188,1505,18.914,-9.8547
15.238,1505.9,18.422,-9.8334
15.288,1506.8,17.93,-9.8422
15.338,1507.7,17.438,-9.839
15.388,1508.6,16.946,-9.8383
15.438,1509.4,16.455,-9.8318
15.488,1510.2,15.964,-9.8093
15.538,1511,15.474,-9.7873
15.588,1511.8,14.984,-9.7846
15.638,1512.5,14.495,-9.7824
15.688,1513.2,14.006,-9.7706
15.738,1513.9,13.518,-9.7698
15.788,1514.6,13.03,-9.7298
15.838,1515.2,12.544,-9.7173
15.888,1515.8,12.059,-9.685
15.938,1516.4,11.576,-9.6504
15.988,1517,11.093,-9.6508
16.038,1517.5,10.611,-9.6319
16.088,1518.1,10.13,-9.6201
16.138,1518.5,9.649,-9.6184
16.188,1519,9.1676,-9.638
16.238,1519.5,8.6859,-9.6229
16.288,1519.9,8.206,-9.5699
16.338,1520.3,7.7281,-9.5529
16.388,1520.7,7.2502,-9.5659
16.438,1521,6.7716,-9.5805
16.488,1521.3,6.2929,-9.5594
16.538,1521.6,5.8152,-9.5522
16.588,1521.9,5.3383,-9.5167
16.638,1522.2,4.8632,-9.4876
16.688,1522.4,4.3888,-9.495
16.738,1522.6,3.9146,-9.4629
16.788,1522.8,3.4423,-9.4363
16.838,1523,2.9718,-9.371
16.888,1523.1,2.5042,-9.346
16.938,1523.2,2.0381,-9.2852
16.988,1523.3,1.5759,-9.2039
17.038,1523.4,1.117,-9.1586
17.088,1523.4,0.66008,-9.1175
17.138,1523.4,0.20493,-9.0923
17.188,1523.4,-0.26585,-9.4814
17.238,1523.4,-0.73965,-9.4668
17.292,1523.4,-1.2627,-9.7438
17.343,1523.3,-1.762,-9.7126
17.395,1523.2,-2.2613,-9.6836
17.447,1523,-2.7605,-9.6477
17.499,1522.9,-3.2597,-9.611
17.551,1522.7,-3.7588,-9.5809
17.603,1522.5,-4.2581,-9.5539
17.656,1522.3,-4.7573,-9.516
17.708,1522,-5.2566,-9.4786
17.761,1521.7,-5.7557,-9.4358
17.814,1521.4,-6.2548,-9.393
17.868,1521,-6.7539,-9.346
17.921,1520.7,-7.2529,-9.2973
17.975,1520.3,-7.7517,-9.2392
18.03,1519.8,-8.2506,-9.1903
18.084,1519.4,-8.7494,-9.1345
18.139,1518.9,-9.2481,-9.0765
18.194,1518.3,-9.7467,-9.0091
18.25,1517.8,-10.245,-8.9427
18.306,1517.2,-10.744,-8.8723
18.363,1516.6,-11.242,-8.7984
18.42,1515.9,-11.74,-8.7235
18.478,1515.2,-12.238,-8.6447
18.536,1514.5,-12.736,-8.5639
18.595,1513.7,-13.234,-8.4872
18.654,1512.9,-13.732,-8.3995
18.714,1512.1,-14.229,-8.2963
18.774,1511.2,-14.726,-8.204
18.836,1510.3,-15.224,-8.12
18.898,1509.3,-15.721,-8.0235
18.96,1508.3,-16.218,-7.9052
19.024,1507.3,-16.714,-7.7942
19.089,1506.2,-17.21,-7.6815
19.154,1505,-17.706,-7.5652
19.221,1503.9,-18.202,-7.4363
19.289,1502.6,-18.697,-7.32
19.357,1501.3,-19.192,-7.1989
19.427,1499.9,-19.687,-7.0846
19.498,1498.5,-20.181,-6.9439
19.571,1497,-20.676,-6.8163
19.645,1495.5,-21.17,-6.692
19.72,1493.9,-21.664,-6.5491
19.797,1492.2,-22.158,-6.4127
19.876,1490.4,-22.651,-6.2641
19.957,1488.6,-23.145,-6.1235
20.039,1486.7,-23.638,-5.981
20.124,1484.6,-24.132,-5.8293
20.211,1482.5,-24.624,-5.6588
20.3,1480.3,-25.116,-5.4867
20.393,1477.9,-25.605,-5.3027
20.488,1475.5,-26.093,-5.1287
20.586,1472.9,-26.579,-4.9573
20.688,1470.2,-27.064,-4.7746
20.793,1467.3,-27.548,-4.5931
20.902,1464.3,-28.03,-4.4149
21.016,1461.1,-28.512,-4.2413
21.134,1457.6,-28.994,-4.0651
21.258,1454,-29.472,-3.8629
21.388,1450.2,-29.947,-3.6676
21.524,1446.1,-30.422,-3.4834
21.668,1441.6,-30.896,-3.2879
21.821,1436.9,-31.372,-3.1082
21.984,1431.7,-31.842,-2.8913
22.157,1426.2,-32.309,-2.6886
22.345,1420,-32.777,-2.4896
22.548,1413.4,-33.236,-2.2713
22.768,1406,-33.69,-2.0601
23.007,1397.9,-34.13,-1.8395
23.275,1388.7,-34.569,-1.6391
23.577,1378.2,-35,-1.4288
23.952,1365,-35.465,-1.2386
24.376,1349.8,-35.885,-0.98985
24.858,1332.5,-36.252,-0.76242
25.358,1314.3,-36.537,-0.56932
25.858,1295.9,-36.743,-0.41145
26.358,1277.5,-36.887,-0.28923
26.858,1259.1,-36.988,-0.2017
27.358,1240.6,-37.056,-0.13541
27.858,1222,-37.097,-0.081535
28.358,1203.5,-37.121,-0.049405
28.858,1184.9,-37.129,-0.016279
29.358,1166.3,-37.126,0.0063312
29.858,1147.8,-37.115,0.021992
30.358,1129.2,-37.099,0.031703
30.858,1110.7,-37.079,0.04144
31.358,1092.1,-37.055,0.04828
31.858,1073.6,-37.029,0.051403
32.358,1055.1,-37.001,0.055401
32.858,1036.6,-36.972,0.057992
33.358,1018.1,-36.942,0.060039
33.858,999.68,-36.91,0.064044
34.358,981.24,-36.879,0.061594
34.858,962.8,-36.848,0.063462
35.358,944.39,-36.815,0.064785
35.858,925.99,-36.782,0.065612
36.358,907.61,-36.749,0.066272
36.858,889.24,-36.716,0.066632
37.358,870.89,-36.682,0.067064
37.858,852.56,-36.649,0.066463
38.358,834.24,-36.616,0.066464
38.858,815.94,-36.582,0.066908
39.358,797.66,-36.549,0.066477
39.858,779.39,-36.515,0.067597
40.358,761.14,-36.483,0.065448
40.858,742.91,-36.45,0.065281
41.358,724.69,-36.417,0.06651
41.858,706.49,-36.385,0.064412
42.358,688.31,-36.352,0.065197
42.858,670.14,-36.319,0.066654
43.358,651.99,-36.287,0.06372
43.858,633.85,-36.255,0.064433
44.358,615.73,-36.223,0.062715
44.858,597.63,-36.192,0.062723
45.358,579.54,-36.159,0.064891
45.858,561.47,-36.128,0.062299
46.358,543.41,-36.097,0.061972
46.858,525.37,-36.066,0.061849
47.358,507.35,-36.036,0.061665
47.858,489.34,-36.003,0.065164
48.358,471.34,-35.973,0.06093
48.858,453.37,-35.941,0.063117
49.358,435.4,-35.91,0.062529
49.858,417.46,-35.878,0.062574
50.358,399.52,-35.847,0.062748
50.858,381.61,-35.816,0.062918
51.358,363.71,-35.783,0.065765
51.858,345.83,-35.749,0.066465
52.358,327.96,-35.719,0.061167
52.858,310.11,-35.687,0.063939
53.358,292.27,-35.657,0.060746
53.858,274.45,-35.625,0.063144
54.358,256.65,-35.594,0.062231
54.858,238.86,-35.564,0.060472
55.358,221.08,-35.532,0.062276
55.858,203.33,-35.501,0.063344
56.358,185.58,-35.47,0.060759
56.858,167.85,-35.441,0.05891
57.358,150.14,-35.411,0.05933
57.858,132.44,-35.382,0.059289
57.859,132.39,-34.882,301.06
57.861,132.33,-34.382,292.34
57.863,132.27,-33.882,283.74
57.865,132.2,-33.382,275.27
57.867,132.14,-32.882,266.92
57.869,132.08,-32.382,258.69
57.871,132.02,-31.882,250.59
57.873,131.95,-31.382,242.62
57.875,131.88,-30.882,234.76
57.877,131.82,-30.382,227.03
57.879,131.75,-29.882,219.43
57.882,131.68,-29.382,211.95
57.884,131.61,-28.882,204.59
57.887,131.53,-28.382,197.36
57.889,131.46,-27.882,190.25
57.892,131.38,-27.382,183.26
57.895,131.31,-26.882,176.4
57.898,131.23,-26.382,169.67
57.901,131.15,-25.882,163.05
57.904,131.07,-25.382,156.56
57.907,130.98,-24.882,150.2
57.911,130.9,-24.382,143.96
57.914,130.81,-23.882,137.85
57.918,130.72,-23.382,131.86
57.922,130.63,-22.882,125.99
57.926,130.54,-22.382,120.25
57.931,130.44,-21.882,114.63
57.935,130.34,-21.382,109.14
57.94,130.24,-20.883,103.77
57.945,130.13,-20.383,98.522
57.951,130.03,-19.883,93.401
57.956,129.91,-19.383,88.404
57.962,129.8,-18.883,83.532
57.968,129.68,-18.383,78.784
57.975,129.56,-17.883,74.16
57.982,129.43,-17.383,69.661
57.99,129.3,-16.884,65.287
57.998,129.17,-16.384,61.037
58.007,129.02,-15.884,56.911
58.016,128.88,-15.385,52.904
58.027,128.72,-14.885,49.019
58.038,128.56,-14.385,45.259
58.05,128.39,-13.885,41.622
58.063,128.21,-13.385,38.11
58.077,128.02,-12.886,34.73
58.093,127.82,-12.386,31.476
58.111,127.61,-11.887,28.35
58.13,127.38,-11.388,25.338
58.153,127.13,-10.888,22.443
58.178,126.86,-10.389,19.675
58.207,126.57,-9.8908,17.061
58.241,126.24,-9.3944,14.576
58.282,125.86,-8.8971,12.172
58.333,125.43,-8.3985,9.8896
58.397,124.9,-7.8985,7.734
58.485,124.23,-7.3991,5.7125
58.616,123.3,-6.8998,3.8142
58.84,121.8,-6.4362,2.0692
59.34,118.65,-6.1741,0.52422
59.725,116.25,-6.2626,-0.22967
60.199,113.28,-6.2541,0.017945
60.699,110.15,-6.2843,-0.060472
61.199,107.01,-6.266,0.036682
61.699,103.88,-6.2644,0.0031231
62.199,100.75,-6.2589,0.010978
62.699,97.615,-6.2718,-0.025787
63.199,94.483,-6.2575,0.028506
63.632,91.778,-6.2431,0.033357
63.909,90.051,-6.2198,0.084093
64.409,86.923,-6.2898,-0.13997
64.716,85.005,-6.2277,0.20269
65.166,82.198,-6.2526,-0.055358
65.666,79.068,-6.2665,-0.027851
66.166,75.936,-6.2615,0.0099305
66.666,72.805,-6.2636,-0.0042054
67.166,69.675,-6.2584,0.010447
67.666,66.549,-6.243,0.030833
68.166,63.421,-6.2678,-0.049525
68.666,60.291,-6.2542,0.027226
69.166,57.162,-6.2605,-0.012748
69.666,54.035,-6.2487,0.023727
70.166,50.908,-6.2595,-0.021713
70.666,47.78,-6.2532,0.012688
71.166,44.655,-6.2454,0.015472
71.642,41.681,-6.2313,0.02956
72.142,38.558,-6.2604,-0.058069
72.613,35.619,-6.2215,0.082554
73.113,32.497,-6.2673,-0.091534
73.613,29.375,-6.2218,0.091029
74.113,26.256,-6.2528,-0.062003
74.613,23.137,-6.2245,0.056602
75.101,20.099,-6.2336,-0.018705
75.592,17.038,-6.2278,0.01172
76.092,13.922,-6.236,-0.016323
76.592,10.801,-6.2467,-0.021473
77.092,7.682,-6.2299,0.033641
77.592,4.5671,-6.2295,6.9521e-4
78.092,1.4493,-6.2417,-0.024251
78.592,-1.6713,-6.2407,0.00186
